#
# Data file of the   first-excited state energies(keV)(E2+) and
# parameters "beta" obtained from the  B(E2)up transition values.
# A parameter "beta" corresponds to  deformation parameter "beta2"
# in absolute value and in the lowest order on deformation.
# The data   extracted from data file  "raman_tableI.txt"
# of the paper by S.Raman, C.W.Nestor,Jr, P.Tikkanen
# [Atom.Data Nucl.Data Tabl. 78(2001)1;  Table 1 for even-even nuclei]
# FORMAT (I4,I4,f13.5,f10.4)
#
#  Z   A     E2+        beta
#
   2   4  27420.00000
   2   6   1797.00000
   2   8   3590.00000
   2  10   3240.00000
   4   6   1670.00000
   4   8   3040.00000
   4  10   3368.03000    1.1400
   4  12   2102.00000
   4  14   1590.00000
   6  10   3353.60000     .8300
   6  12   4438.91000     .5820
   6  14   7012.00000     .3600
   6  16   1766.00000
   6  18   1620.00000
   8  14   6590.00000
   8  16   6917.10000     .3640
   8  18   1982.07000     .3550
   8  20   1673.68000     .2610
   8  22   3190.00000     .2080
  10  16   1690.00000
  10  18   1887.30000     .6940
  10  20   1633.67400     .7270
  10  22   1274.54200     .5620
  10  24   1981.60000     .4500
  10  26   2018.20000     .4980
  10  28   1310.00000     .5000
  12  22   1246.30000     .5800
  12  24   1368.67500     .6050
  12  26   1808.73000     .4820
  12  28   1473.40000     .4910
  12  30   1482.20000     .4310
  12  32    885.50000     .4730
  12  34    670.00000
  14  26   1795.90000     .4460
  14  28   1779.03000     .4070
  14  30   2235.33000     .3150
  14  32   1941.50000     .2170
  14  34   3327.50000     .1790
  14  36   1399.00000     .2590
  14  38   1084.00000     .2490
  16  30   2210.60000     .3380
  16  32   2230.30000     .3120
  16  34   2127.56400     .2520
  16  36   3290.90000     .1680
  16  38   1292.00000     .2460
  16  40    900.00000     .2840
  16  42    890.00000     .3000
  16  44   1315.00000     .2540
  18  34   2090.90000     .2380
  18  36   1970.39000     .2560
  18  38   2167.47200     .1630
  18  40   1460.85900     .2510
  18  42   1208.20000     .2750
  18  44   1144.00000     .2400
  18  46   1550.00000     .1750
  20  38   2206.00000     .1250
  20  40   3904.38000     .1230
  20  42   1524.73000     .2470
  20  44   1157.04700     .2530
  20  46   1346.00000     .1530
  20  48   3831.72000     .1060
  20  50   1026.00000
  20  52   2563.00000
  22  42   1554.90000     .3190
  22  44   1082.99000     .2680
  22  46    889.28600     .3170
  22  48    983.51900     .2690
  22  50   1553.77800     .1660
  22  52   1049.73000
  24  48    752.16000     .3370
  24  50    783.30000     .2930
  24  52   1434.09000     .2230
  24  54    834.85500     .2500
  24  56   1006.61000
  26  50    810.00000
  26  52    849.60000
  26  54   1408.19000     .1950
  26  56    846.77600     .2392
  26  58    810.78400     .2586
  26  60    823.63000     .2250
  26  62    876.80000
  28  56   2700.60000     .1730
  28  58   1454.00000     .1828
  28  60   1332.51800     .2070
  28  62   1172.91000     .1978
  28  64   1345.75000     .1790
  28  66   1425.10000     .1580
  28  68   2033.20000     .1000
  28  70   1259.60000
  30  60   1004.10000
  30  62    954.00000     .2180
  30  64    991.55000     .2420
  30  66   1039.39000     .2180
  30  68   1077.37000     .2050
  30  70    884.80000     .2280
  30  72    652.50000
  30  74    605.82000
  30  76    598.68000
  30  78    729.60000
  32  64    901.70000
  32  66    957.00000     .1740
  32  68   1015.99000     .2060
  32  70   1039.25000     .2245
  32  72    834.01100     .2424
  32  74    595.85000     .2825
  32  76    562.93000     .2623
  32  78    619.34000
  32  80    659.15000
  32  82   1348.04000
  34  68    854.20000
  34  70    944.60000     .3090
  34  72    862.08000     .2240
  34  74    634.75000     .3019
  34  76    559.10200     .3090
  34  78    613.72700     .2712
  34  80    666.16000     .2318
  34  82    654.69000     .1934
  34  84   1454.42000
  34  86    704.10000
  36  72    709.10000
  36  74    455.80000     .4190
  36  76    423.96000     .4090
  36  78    455.04000     .3520
  36  80    616.61000     .2650
  36  82    776.52100     .2021
  36  84    881.61500     .1489
  36  86   1564.87000     .1450
  36  88    775.31000
  36  90    707.13000
  36  92    769.00000
  36  94    665.00000
  38  76    260.90000
  38  78    278.50000     .4350
  38  80    385.86000     .4040
  38  82    573.54000     .2900
  38  84    793.30000     .2140
  38  86   1076.68000     .1400
  38  88   1836.08700     .1173
  38  90    831.68000     .1270
  38  92    814.98000     .1240
  38  94    836.91000     .1250
  38  96    814.93000     .1700
  38  98    144.22500     .4080
  38 100    129.70000     .4230
  38 102    126.00000
  40  80    289.90000
  40  82    407.30000     .3670
  40  84    540.00000     .2510
  40  86    751.75000     .1510
  40  88   1057.03000     .1850
  40  90   2186.27400     .0894
  40  92    934.49000     .1027
  40  94    918.75000     .0900
  40  96   1750.49800     .0800
  40  98   1222.93000
  40 100    212.53000     .3550
  40 102    151.77000     .4270
  40 104    140.30000
  42  84    443.80000
  42  86    566.60000
  42  88    740.53000
  42  90    947.97000
  42  92   1509.49000     .1058
  42  94    871.09600     .1509
  42  96    778.24500     .1720
  42  98    787.38400     .1683
  42 100    535.57000     .2309
  42 102    296.59700     .3110
  42 104    192.30000     .3620
  42 106    171.54800     .3540
  42 108    192.90000     .3800
  44  88    616.00000
  44  90    738.10000
  44  92    864.60000
  44  94   1430.51000
  44  96    832.57000     .1579
  44  98    652.44000     .1947
  44 100    539.50600     .2148
  44 102    475.07900     .2404
  44 104    358.02000     .2707
  44 106    270.07000     .2570
  44 108    242.24000     .2920
  44 110    240.71000     .2950
  44 112    236.66000     .3060
  44 114    127.00000
  46  94    814.00000
  46  96   1415.40000
  46  98    863.10000
  46 100    665.56000
  46 102    556.43000     .1960
  46 104    555.81000     .2090
  46 106    511.85100     .2290
  46 108    433.93800     .2430
  46 110    373.81000     .2570
  46 112    348.79000     .2200
  46 114    332.50000     .1640
  46 116    340.60000     .2070
  46 118    378.40000
  48  98   1394.70000
  48 100   1004.50000
  48 102    776.55000
  48 104    658.00000     .1740
  48 106    632.64000     .1732
  48 108    632.98600     .1752
  48 110    657.76380     .1770
  48 112    617.52000     .1862
  48 114    558.45600     .1903
  48 116    513.49000     .1906
  48 118    487.77000     .1900
  48 120    505.90000     .1720
  48 122    569.45000     .1820
  48 124    613.33000
  48 126    652.00000
  50 102   1472.00000
  50 104   1260.10000
  50 106   1207.70000
  50 108   1206.07000
  50 110   1211.89000
  50 112   1256.85000     .1226
  50 114   1299.92000     .1210
  50 116   1293.56000     .1118
  50 118   1229.66600     .1105
  50 120   1171.34000     .1075
  50 122   1140.55000     .1036
  50 124   1131.73900     .0953
  50 126   1141.15000
  50 128   1168.83000
  50 130   1221.26000
  50 132   4041.10000
  50 134    725.00000
  52 108    625.40000
  52 110    657.70000
  52 112    689.01000
  52 114    708.90000
  52 116    678.92000
  52 118    605.70600
  52 120    560.43800     .2010
  52 122    564.11700     .1847
  52 124    602.73100     .1695
  52 126    666.33800     .1534
  52 128    743.30000     .1363
  52 130    839.49400     .1184
  52 132    973.90000
  52 134   1279.04000
  52 136    605.91000
  52 138    443.10000
  54 112    466.00000
  54 114    449.70000     .2210
  54 116    393.50000     .2490
  54 118    337.32000     .2650
  54 120    322.40000     .2910
  54 122    331.18000     .2590
  54 124    354.14000     .2120
  54 126    388.63400     .1881
  54 128    442.91000     .1836
  54 130    536.08500     .1690
  54 132    667.72000     .1409
  54 134    847.04100     .1190
  54 136   1313.02800     .1220
  54 138    588.82500
  54 140    376.65800     .1137
  54 142    287.10000
  54 144    252.60000
  56 118    194.00000
  56 120    183.00000
  56 122    196.10000     .3540
  56 124    229.89000     .3020
  56 126    256.09000     .2730
  56 128    284.09000     .2490
  56 130    357.38000     .2183
  56 132    464.58800     .1860
  56 134    604.72300     .1609
  56 136    818.51500     .1258
  56 138   1435.81800     .0933
  56 140    602.35000     .1260
  56 142    359.59700     .1595
  56 144    199.32600     .1940
  56 146    181.05000     .2180
  56 148    141.70000
  58 124    142.00000     .3850
  58 126    169.59000     .3250
  58 128    207.30000     .2980
  58 130    253.99000     .2580
  58 132    325.54000     .2640
  58 134    409.12000     .1950
  58 136    552.20000     .1700
  58 138    788.74400     .1259
  58 140   1596.22700     .1015
  58 142    641.28600     .1277
  58 144    397.44100     .1660
  58 146    258.46000     .1930
  58 148    158.46800     .2510
  58 150     97.10000     .3200
  58 152     81.70000
  60 128    133.66000
  60 130    158.00000     .3700
  60 132    212.62000     .3490
  60 134    294.30000     .2490
  60 136    373.60000
  60 138    520.10000
  60 140    773.73000
  60 142   1575.83000     .0917
  60 144    696.51300     .1237
  60 146    453.77000     .1524
  60 148    301.70200     .2013
  60 150    130.21000     .2853
  60 152     72.51000     .3490
  60 154     70.80000
  60 156     66.90000
  62 130    122.00000
  62 132    131.00000
  62 134    163.00000     .3660
  62 136    254.91000     .2930
  62 138    346.90000     .2080
  62 140    530.70000
  62 142    768.00000
  62 144   1660.20000     .0874
  62 146    747.11500
  62 148    550.26500     .1423
  62 150    333.86300     .1931
  62 152    121.78170     .3064
  62 154     81.97600     .3410
  62 156     75.89000
  62 158     72.80000
  62 160     70.60000
  64 138    220.90000
  64 140    328.60000
  64 142    515.30000
  64 144    743.00000
  64 146   1971.97000
  64 148    784.43000
  64 150    638.04500
  64 152    344.27890     .2060
  64 154    123.07140     .3120
  64 156     88.96660     .3378
  64 158     79.51000     .3484
  64 160     75.26000     .3534
  64 162     71.00000
  66 142    315.90000
  66 144    492.50000
  66 146    682.90000
  66 148   1677.30000
  66 150    803.40000
  66 152    613.81000     .0970
  66 154    334.58000     .2370
  66 156    137.83000     .2929
  66 158     98.91800     .3255
  66 160     86.78820     .3387
  66 162     80.66000     .3430
  66 164     73.39200     .3481
  66 166     76.58700
  68 144    330.00000
  68 148    646.60000
  68 150   1578.87000
  68 152    808.27000
  68 154    560.00000
  68 156    344.51000     .1890
  68 158    192.15000     .2550
  68 160    125.80000     .3040
  68 162    102.04000     .3222
  68 164     91.40000     .3333
  68 166     80.57700     .3420
  68 168     79.80400     .3381
  68 170     78.59100     .3363
  68 172     77.00000
  70 152   1531.40000
  70 154    821.30000
  70 156    536.40000
  70 158    358.20000     .1940
  70 160    243.10000     .2300
  70 162    166.85000     .2630
  70 164    123.36000     .2900
  70 166    102.37000     .3150
  70 168     87.73000     .3220
  70 170     84.25474     .3258
  70 172     78.74270     .3302
  70 174     76.47100     .3249
  70 176     82.13000     .3050
  70 178     84.00000
  72 154   1513.00000
  72 156    858.00000
  72 158    476.36000
  72 160    389.60000
  72 162    285.00000     .1580
  72 164    211.05000     .1970
  72 166    158.50000     .2500
  72 168    124.00000     .2750
  72 170    100.80000     .3010
  72 172     95.22000     .2760
  72 174     90.98500     .2860
  72 176     88.35100     .2953
  72 178     93.18000     .2803
  72 180     93.32600     .2738
  72 182     97.79000
  72 184    107.40000
  74 162    450.20000
  74 164    331.60000
  74 166    251.70000
  74 168    199.30000     .2320
  74 170    156.85000     .2400
  74 172    123.20000     .2840
  74 174    113.00000     .2510
  74 176    109.08000
  74 178    106.06000
  74 180    103.55700     .2540
  74 182    100.10600     .2508
  74 184    111.20800     .2362
  74 186    122.33000     .2257
  74 188    143.00000
  74 190    205.00000
  76 164    548.00000
  76 166    430.80000
  76 168    341.20000
  76 170    286.70000
  76 172    227.77000     .2250
  76 174    158.70000     .2660
  76 176    135.10000
  76 178    131.60000
  76 180    132.30000     .2260
  76 182    127.00000     .2340
  76 184    119.80000     .2130
  76 186    137.15900     .2000
  76 188    155.02100     .1862
  76 190    186.71800     .1775
  76 192    205.79561     .1667
  76 194    218.50900
  76 196    300.00000
  78 168    582.00000
  78 170    509.00000
  78 172    457.00000
  78 174    394.00000
  78 176    263.90000     .1900
  78 178    170.10000
  78 180    152.23000     .2560
  78 182    154.90000
  78 184    162.97000     .2240
  78 186    191.53000     .1979
  78 188    265.63000     .1860
  78 190    295.80000     .1490
  78 192    316.50819     .1532
  78 194    328.45300     .1426
  78 196    355.68410     .1296
  78 198    407.22000     .1141
  78 200    470.10000
  80 176    613.30000
  80 178    558.30000
  80 180    434.10000
  80 182    351.80000
  80 184    366.51000     .1600
  80 186    405.33000     .1320
  80 188    412.80000
  80 190    416.40000
  80 192    422.80000
  80 194    428.00000
  80 196    425.98000     .1155
  80 198    411.80249     .1065
  80 200    367.94400     .0982
  80 202    439.56200     .0826
  80 204    436.55200     .0686
  80 206   1068.54000
  82 182    888.30000
  82 184    701.50000
  82 186    662.40000
  82 188    723.90000
  82 190    773.80000
  82 192    853.60000
  82 194    965.35000
  82 196   1049.20000
  82 198   1063.50000
  82 200   1026.62000
  82 202    960.66000
  82 204    899.17100     .0412
  82 206    803.10000     .0322
  82 208   4085.40000     .0553
  82 210    799.70000     .0224
  82 212    804.90000
  82 214    836.00000
  84 192    262.00000
  84 194    318.60000
  84 196    463.12000
  84 198    605.00000
  84 200    665.90000
  84 202    677.30000
  84 204    684.34200
  84 206    700.66000
  84 208    686.52800
  84 210   1181.40000     .0138
  84 212    727.33000
  84 214    609.31600
  84 216    549.76000
  84 218    511.00000
  86 198    339.00000
  86 200    432.90000
  86 202    504.10000
  86 204    542.90000
  86 206    575.30000
  86 208    635.80000
  86 210    643.80000
  86 212   1273.80000
  86 214    694.70000
  86 216    461.90000
  86 218    324.22000
  86 220    240.98600     .1266
  86 222    186.21100     .1419
  88 206    474.30000
  88 208    520.20000
  88 210    603.30000
  88 212    629.30000
  88 214   1382.40000
  88 216    688.20000
  88 218    389.10000     .0950
  88 220    178.47000
  88 222    111.12000     .1920
  88 224     84.37300     .1790
  88 226     67.67000     .2022
  88 228     63.82300     .2170
  88 230     57.40000
  90 216   1478.00000
  90 218    689.60000
  90 220    373.30000
  90 222    183.30000     .1530
  90 224     98.10000
  90 226     72.20000     .2280
  90 228     57.75900     .2301
  90 230     53.20000     .2441
  90 232     49.36900     .2608
  90 234     49.55000     .2410
  92 226     80.50000
  92 228     59.00000
  92 230     51.72000     .2620
  92 232     47.57200     .2640
  92 234     43.49800     .2718
  92 236     45.24200     .2821
  92 238     44.91000     .2863
  92 240     45.00000
  94 236     44.63000
  94 238     44.08000     .2861
  94 240     42.82400     .2891
  94 242     44.54000     .2917
  94 244     46.00000     .2931
  94 246     44.20000
  96 238     35.00000
  96 240     38.00000     .2970
  96 242     42.13000
  96 244     42.96500     .2972
  96 246     42.85200     .2983
  96 248     43.38000     .2972
  96 250     43.00000
  98 244     40.00000
  98 248     41.53000
  98 250     42.72200     .2990
  98 252     45.72000     .3040
 100 248     44.00000
 100 250     44.00000
 100 252     46.60000
 100 254     44.98800
 100 256     48.10000
